 $SEQPAR
 ECHOT = 0.35
 HZPPPM = 120.30942
 SEQ = None
 $END
 $NMID
 FMTDAT = '(2E15.6)'
 VOLUME = 27.5
 $END
   8.971914e+01   7.077854e+01
  -2.962010e+02  -3.748866e+02
  -9.820665e+00  -3.509560e+02
  -4.384969e+01  -1.529478e+02
   2.238464e+02  -4.139275e+01
   3.002418e+02   1.719789e+02
  -7.358147e+01   9.294562e+01
   8.231823e+01   6.065161e+01
  -2.395879e+01   2.070653e+01
  -1.167788e+02  -3.749899e+01
  -1.374457e+02  -3.484900e+02
   1.983131e+02  -4.273873e+01
  -1.796161e+02   1.778288e+02
   1.673817e+02   5.962097e+01
   1.461632e+02  -3.366024e+01
  -7.164084e+01  -2.211768e+02
   9.619343e+01  -1.908459e+02
   3.432353e+02  -4.906107e+01
   2.264610e+02   7.969658e+01
   2.571795e+02  -4.665204e+01
   1.899984e+02   1.986819e+02
   2.516203e+01  -7.503443e+01
  -1.432305e+01  -9.398129e+01
   3.286085e+02  -8.260184e+01
   1.039579e+02   1.761101e+02
   4.321130e+01  -5.054183e+01
   1.186332e+02   2.003203e+02
  -3.138491e+01   7.698121e+01
  -7.939347e+01   4.790456e+01
   1.112090e+02  -1.216213e+02
   1.600480e+02  -3.034346e+01
   1.445378e+02  -1.427676e+02
   2.290795e+02  -5.467739e+01
   1.015954e+02  -4.798787e+01
  -3.672089e+01  -1.537951e+02
   6.184204e+01  -5.525866e+01
   1.991987e+02   9.349995e+01
   1.607805e+02  -1.070227e+02
   3.283635e+02   4.899617e+01
   1.671941e+02   1.475279e+02
  -6.262171e+01   2.293365e+02
   1.379938e+02   3.122057e+01
   6.564489e+01  -2.683407e+01
   2.480719e+01   3.058967e+01
   1.906227e+02  -3.971941e+00
  -4.393405e+01   7.157046e+01
  -2.745925e+01   1.513541e+02
   1.323845e+01  -2.609945e+01
   6.860261e-01  -5.532489e+01
   5.918628e+01  -5.442972e+01
  -5.885524e+01  -1.343140e+02
   1.597865e+02   1.678249e+01
   2.703198e+02  -1.197919e+01
   5.686163e+01   1.846723e+01
   3.008057e+01  -1.215111e+02
  -5.524917e+01   3.043806e+01
   8.149669e+01   3.463512e+01
   1.896168e+02   3.336496e+01
   2.041833e+02   3.131750e+01
   1.739022e+02   5.826537e+01
   1.154536e+02  -4.301139e+01
   1.884051e+01   5.454096e+01
   8.779876e+01  -3.188481e+01
   1.371041e+02  -1.018307e+01
   7.428068e+01   6.146823e+00
  -1.733213e+00   5.270731e+00
  -4.491296e+01  -8.975145e+00
   4.451289e+01   2.708953e+01
  -1.804088e+01  -1.515370e+02
   8.729560e+01   1.683650e+01
   1.435308e+02  -1.096469e+02
   1.309337e+02  -6.113546e+01
   1.163880e+02  -6.102868e+00
  -4.271702e+01   5.264275e+01
   7.237734e+01  -7.767752e+01
   1.049657e+02  -2.141274e+02
   1.060783e+02  -3.251238e+01
   6.491852e+01   2.384724e+01
   7.349931e+01   1.679763e+02
   6.277122e+01   1.751211e+02
   3.337687e+01  -1.727258e+00
   9.906784e+01   2.215590e+00
   1.724377e+02   8.137843e+00
   1.315338e+02  -4.289095e+01
   3.428994e+01  -8.692781e+01
   1.051656e+02   2.099199e+01
   9.962362e+01   5.223102e+01
   1.009526e+02  -2.440016e+00
   1.031589e+01  -1.094353e+02
   1.151680e+02  -5.335434e+01
   1.483479e+01  -4.439511e+01
   1.087585e+01   7.780317e+01
  -8.324461e+01  -1.151378e+00
  -1.216370e+01  -8.346928e+01
  -1.464405e+01  -7.929277e+00
   7.744328e+01   1.007467e+01
   1.087693e+02  -8.865292e+01
   1.687248e+02   9.849888e+01
   1.117638e+02   1.352562e+02
  -1.762920e+01   5.908735e+01
   1.055880e+02   2.414646e+01
   9.654723e+01  -7.598271e+01
   4.629091e+01  -2.457584e+01
   4.238025e+01  -9.911625e+01
   7.870169e+01   6.741870e+01
   1.872974e+01   1.083660e+02
  -1.561786e+02   2.600576e+01
  -2.691398e+00  -1.414629e+00
   3.140463e+01   6.775089e+01
  -6.498319e+01   4.969361e+01
  -3.444418e+00   5.359762e+01
   9.401823e+01  -3.341472e+01
   4.944869e+01  -4.614435e+01
  -2.184744e+01  -6.161485e+01
   7.065650e+00   9.537257e+01
   6.387159e+01  -1.849091e+01
   4.839467e+01   3.515642e+01
   2.605035e+01   1.889413e+01
   1.175196e+02   5.464613e+01
   5.690228e+01  -9.624998e+00
  -2.501885e+01   5.009744e+00
   1.704108e+02  -9.829620e+01
   1.059552e+02   8.640362e+01
   4.303376e+01  -7.779733e+01
  -2.356149e+01  -1.663036e+01
  -4.128935e+01   5.337010e+01
   1.111156e+02   8.329883e+01
   5.086043e+00  -5.390730e+01
   1.115070e+01   7.741041e+01
   6.646684e+01  -5.741830e+01
   3.940085e+01   9.242838e+01
   4.134909e+01   9.629759e+01
  -3.609002e+01   7.489491e+01
   9.568649e+00   8.639079e+00
   5.922163e+01   5.085240e+01
   1.070648e+02   5.151703e+01
   3.814506e+01  -1.259584e+00
   7.370461e+00   6.199503e+01
   1.825312e+01  -3.159384e+01
   5.856434e+01   8.922499e+01
   7.593154e+01  -6.742434e+01
   1.068478e+02  -8.651369e+01
   8.689113e+01  -8.967776e+01
   1.320361e+02   6.619150e+00
  -4.294207e+00  -1.619389e+01
  -5.508232e+01   1.423921e+01
   4.133814e+01  -3.640703e+01
   1.836089e+01  -4.923081e+01
   1.012464e+02   2.652008e+01
   9.870822e+01   9.691643e+00
   4.464041e+01  -1.046880e+02
   1.844797e+01   8.820735e+00
   1.711837e+01   2.205100e+01
  -4.779822e+01  -1.824905e+00
   2.507862e+01   4.923000e+01
  -3.427420e+01  -3.719838e+01
  -3.656583e+01  -3.886556e+01
   4.976019e+01  -3.893457e+01
   5.483878e+01   1.324399e+02
   1.027846e+02  -5.894458e+01
   3.760385e+00   3.127695e+01
   1.340302e+02   3.218391e+01
   4.782143e+01  -5.607653e+01
   1.484311e+01  -3.559073e+00
   6.003294e+01   2.626475e+00
   1.033208e+02   1.060035e+01
   4.388500e+01  -4.769091e+01
  -3.380567e+01   3.317776e+01
  -7.170709e+00   3.057163e+01
  -8.762181e+01   2.189704e+01
   7.587608e+00  -9.470594e+01
   1.056243e+01  -7.772128e+00
   2.578528e+00   4.004265e+00
   8.440024e+01  -1.748783e+02
   1.718887e+01   6.062062e+01
  -1.974529e+00  -7.556708e+01
   2.043243e+01  -1.181411e+01
  -4.605329e+01   1.684948e+02
   1.988413e+01   3.237573e+01
  -3.321941e+00  -6.907628e+01
  -2.078844e+01  -1.077439e+01
  -5.689364e+01  -4.773383e+01
   8.290432e+01   2.028076e+01
   3.073566e+01   2.587519e-01
   3.619628e+01   3.904467e+01
   3.594725e+01   1.247923e+01
   1.972731e+01   4.153453e+01
   1.313370e+02   1.985312e+01
  -4.879838e+01   3.672942e+01
   4.699864e+01   1.801284e+01
  -2.790751e+01   2.964176e+01
   2.637253e+01  -7.068352e+01
   1.403812e+02   1.253454e+01
   4.128540e+00  -7.773982e+01
   5.828189e+01   6.092389e+00
   1.320594e+01  -3.706396e+01
   3.820515e+01   5.812337e+01
   2.804969e+01   1.430452e+01
   9.502543e+01  -2.965081e+01
   1.114130e+01   5.663014e+00
  -2.439650e+01   4.513142e+01
   1.019060e+02   7.164907e+01
  -1.393683e+01   6.914086e+01
  -2.897734e+01   3.551311e+01
   3.972853e+01   1.925335e+01
   5.655783e+01   5.974693e+01
  -4.287624e+01  -5.400615e+01
  -5.309120e-01  -1.426284e+01
   6.199917e+00   2.588116e+00
   1.791215e+01  -8.047402e+01
   4.942205e+01  -6.702466e+01
   1.191294e+02   1.134686e+01
   6.733276e+01   1.026845e+02
   1.028651e+01  -2.651720e+01
   6.097731e+01  -2.192451e+01
  -6.123004e+00   2.202735e+01
   5.166720e+01  -2.384530e+00
   1.034860e+02   7.695713e+01
   5.977366e+01  -2.358534e+01
   2.860047e+01  -6.745800e+01
  -9.084292e+00   5.059383e+00
   1.786161e+01   1.647431e+01
   6.341164e+01  -9.072637e+01
   5.903009e+01   3.756852e+00
  -7.707291e+01  -3.780336e+01
   2.109708e+01   1.442758e+01
  -7.208805e+00  -2.204897e+01
  -6.489295e+00   4.149111e+01
   2.101561e+01  -1.839200e+01
   6.436482e+00   5.952258e+01
   9.767161e+01  -5.016167e+01
   4.765885e+01   1.795873e+01
   5.531849e+01  -2.133973e+01
   4.147347e+00   2.862802e+01
   3.416475e+01  -2.144312e+01
  -1.745174e+01   4.102856e+01
  -3.160884e+01   3.386737e+01
   4.094079e+01   1.808406e+01
  -5.823904e+00  -8.057783e+00
   1.136177e+01  -1.952626e+01
  -2.906909e+01   3.705321e+01
   1.859453e+01  -4.862955e+01
   1.189734e+01   6.263040e+01
   4.181837e+01  -9.860407e+00
   3.409662e+01   7.219645e+00
   5.786107e+00  -3.606112e+01
  -1.774929e+01   5.879202e+01
  -3.865434e+00   4.774897e+01
   2.344740e+01  -1.918544e+01
   2.838026e+01   7.721087e+01
   5.561925e+01   7.980560e+01
   6.458079e+01   8.659480e+00
  -1.714697e+01   5.956193e+01
   4.592317e+01   3.601377e+01
   8.216462e+01   7.800182e+00
   1.068693e+02  -3.331510e+01
   2.862107e+01   2.934315e+01
   7.512997e+01  -4.196543e+01
   3.927277e+00  -5.036510e+01
   4.936913e+01   8.286630e+01
   3.531489e+01   4.055746e+01
  -1.172344e+01  -4.858958e+00
   6.299012e+01   3.437253e-01
   3.561054e+00   6.441080e+01
   5.789767e+01  -2.283448e+01
   4.470814e+01  -1.321363e+01
   8.590843e+00   8.074351e+00
  -9.831704e+00   3.594928e+01
  -3.923038e+01  -1.081746e+01
   7.869708e+01  -2.652108e+00
  -9.166604e+00   2.726700e+01
   3.076387e+01   1.228676e+01
   3.652181e+01   1.574489e+01
  -3.352743e+01  -2.629405e+01
   5.860791e+01  -7.279698e+01
  -3.769948e+00  -2.344544e+01
  -3.241776e+01  -7.917634e+01
   1.488640e+01  -1.109630e+01
   4.170289e+01   3.363656e-01
  -6.784837e+00   1.140446e+01
  -6.575061e+00  -9.174640e+01
   7.419456e+01   1.255947e+01
   8.348752e+00  -1.612092e+01
   3.688892e+01   1.372362e+01
  -3.318215e+01   7.124881e+01
   2.940747e+01   1.130067e+01
   3.374301e+01  -1.681471e+01
   1.355442e+01  -7.908383e+00
   2.249873e+01   4.933721e+01
   2.536350e+01   4.129307e+01
   4.415248e+00   1.328632e+01
   4.822685e+01  -5.965002e+01
  -4.467089e+01   4.843957e+01
   1.700266e+01  -2.705860e+00
   5.708204e+01  -5.837404e+01
   4.375391e+01   2.903009e+01
   9.250219e+01   5.363087e+00
   2.796006e+01  -2.663370e+01
   2.300335e+01  -1.045622e+00
  -1.185320e+01  -2.701287e+01
  -1.596364e+01   1.156953e+01
   2.370965e+01  -2.891472e+01
   4.776938e+00   3.097506e+01
   8.641860e+01   3.295365e+01
  -3.802967e+01  -3.302043e+01
   5.415441e+01   1.871523e+01
   4.452690e+00  -1.873131e+01
   1.611199e+01  -5.279897e+01
   2.897933e+00   4.566664e+01
   1.419975e+01  -4.653145e+01
   6.888982e+01   1.350759e+01
   5.500405e+01  -1.297736e+01
   1.240747e+01   5.532829e+01
   5.372429e+01  -3.508348e+01
   3.668162e+01   9.866269e+00
   1.086776e+01   1.316907e+01
   1.952859e+01   6.341895e+00
  -4.777097e+00  -2.352650e+01
  -3.362739e+01  -1.217887e+01
