 $SEQPAR
 ECHOT = 4.5
 HZPPPM = 297.204194
 SEQ = 'PRESS'
 $END
 $NMID
 FMTDAT = '(2E15.6)'
 VOLUME = 17.5
 $END
   1.709931e+06  -1.504552e+05
   2.647855e+06  -5.825806e+05
   2.324658e+06  -5.289205e+05
   2.489084e+06  -6.184886e+05
   2.363017e+06  -5.891078e+05
   2.455105e+06  -5.142843e+05
   2.348476e+06  -5.480288e+05
   2.413210e+06  -4.941106e+05
   2.321713e+06  -5.277690e+05
   2.351327e+06  -5.369414e+05
   2.280070e+06  -5.484739e+05
   2.297951e+06  -5.564158e+05
   2.232266e+06  -5.547790e+05
   2.243178e+06  -5.863591e+05
   2.195418e+06  -5.673537e+05
   2.195907e+06  -6.074086e+05
   2.153315e+06  -5.863675e+05
   2.146383e+06  -6.335700e+05
   2.096105e+06  -6.410875e+05
   2.095481e+06  -6.353639e+05
   2.034444e+06  -6.837329e+05
   2.053423e+06  -6.309714e+05
   1.986733e+06  -6.950508e+05
   1.984926e+06  -6.944189e+05
   1.944957e+06  -7.025834e+05
   1.933261e+06  -7.326746e+05
   1.912549e+06  -6.779318e+05
   1.895580e+06  -7.083880e+05
   1.868210e+06  -6.867564e+05
   1.855666e+06  -7.087981e+05
   1.810657e+06  -7.318179e+05
   1.809558e+06  -7.174380e+05
   1.756450e+06  -7.573115e+05
   1.755923e+06  -7.378139e+05
   1.709581e+06  -7.636580e+05
   1.701072e+06  -7.660880e+05
   1.672684e+06  -7.542213e+05
   1.660461e+06  -7.632457e+05
   1.633986e+06  -7.548466e+05
   1.625857e+06  -7.594476e+05
   1.598505e+06  -7.527227e+05
   1.585376e+06  -7.622855e+05
   1.552425e+06  -7.678574e+05
   1.534423e+06  -7.862504e+05
   1.495185e+06  -8.048297e+05
   1.487194e+06  -8.052158e+05
   1.455446e+06  -8.115788e+05
   1.450969e+06  -7.992522e+05
   1.418548e+06  -8.029865e+05
   1.407161e+06  -8.041615e+05
   1.381317e+06  -7.994529e+05
   1.370218e+06  -8.002286e+05
   1.344266e+06  -7.948955e+05
   1.330767e+06  -8.001430e+05
   1.300013e+06  -8.064939e+05
   1.290885e+06  -8.098606e+05
   1.264547e+06  -8.114366e+05
   1.256494e+06  -8.066475e+05
   1.227832e+06  -8.090202e+05
   1.217135e+06  -8.094787e+05
   1.192710e+06  -8.070406e+05
   1.182186e+06  -8.074400e+05
   1.156385e+06  -8.070798e+05
   1.145681e+06  -8.065674e+05
   1.118444e+06  -8.100077e+05
   1.108451e+06  -8.085101e+05
   1.082920e+06  -8.072940e+05
   1.072207e+06  -8.060439e+05
   1.047623e+06  -8.046125e+05
   1.035685e+06  -8.045768e+05
   1.012252e+06  -8.031969e+05
   1.002240e+06  -8.017386e+05
   9.806044e+05  -7.978716e+05
   9.683349e+05  -7.970042e+05
   9.439305e+05  -7.937679e+05
   9.315873e+05  -7.932707e+05
   9.095056e+05  -7.900069e+05
   9.016606e+05  -7.849520e+05
   8.784995e+05  -7.836120e+05
   8.681826e+05  -7.825502e+05
   8.471616e+05  -7.801589e+05
   8.363426e+05  -7.784485e+05
   8.158383e+05  -7.736520e+05
   8.077510e+05  -7.691773e+05
   7.872216e+05  -7.663663e+05
   7.762370e+05  -7.657110e+05
   7.576947e+05  -7.598483e+05
   7.463940e+05  -7.568592e+05
   7.257612e+05  -7.528131e+05
   7.166291e+05  -7.503569e+05
   6.960677e+05  -7.474949e+05
   6.899493e+05  -7.415731e+05
   6.721461e+05  -7.354285e+05
   6.642051e+05  -7.312024e+05
   6.457120e+05  -7.270733e+05
   6.376141e+05  -7.251235e+05
   6.205675e+05  -7.201039e+05
   6.120188e+05  -7.172033e+05
   5.960375e+05  -7.121940e+05
   5.869568e+05  -7.094081e+05
   5.706813e+05  -7.045520e+05
   5.640793e+05  -7.006930e+05
   5.471277e+05  -6.961910e+05
   5.394307e+05  -6.925521e+05
   5.252556e+05  -6.866900e+05
   5.190261e+05  -6.832685e+05
   5.039128e+05  -6.778420e+05
   4.967045e+05  -6.740270e+05
   4.810397e+05  -6.691575e+05
   4.731470e+05  -6.650437e+05
   4.598539e+05  -6.594035e+05
   4.523642e+05  -6.559984e+05
   4.396659e+05  -6.494642e+05
   4.332268e+05  -6.447478e+05
   4.166446e+05  -6.402301e+05
   4.114390e+05  -6.356348e+05
   3.987944e+05  -6.299958e+05
   3.934754e+05  -6.247922e+05
   3.802949e+05  -6.184743e+05
   3.740177e+05  -6.153596e+05
   3.616599e+05  -6.105419e+05
   3.577575e+05  -6.058991e+05
   3.449562e+05  -5.998456e+05
   3.410059e+05  -5.947973e+05
   3.283759e+05  -5.900772e+05
   3.231595e+05  -5.859153e+05
   3.112816e+05  -5.797393e+05
   3.059490e+05  -5.750522e+05
   2.933436e+05  -5.690210e+05
   2.894649e+05  -5.641298e+05
   2.778954e+05  -5.579677e+05
   2.742028e+05  -5.530169e+05
   2.643963e+05  -5.466482e+05
   2.599467e+05  -5.419828e+05
   2.487474e+05  -5.359879e+05
   2.458997e+05  -5.315371e+05
   2.346102e+05  -5.267432e+05
   2.309327e+05  -5.227460e+05
   2.220837e+05  -5.172793e+05
   2.187225e+05  -5.130135e+05
   2.090400e+05  -5.073513e+05
   2.064814e+05  -5.029754e+05
   1.966472e+05  -4.972127e+05
   1.935610e+05  -4.925545e+05
   1.851000e+05  -4.866802e+05
   1.821024e+05  -4.828784e+05
   1.734336e+05  -4.770914e+05
   1.706383e+05  -4.727180e+05
   1.616287e+05  -4.668117e+05
   1.593707e+05  -4.620046e+05
   1.503044e+05  -4.563646e+05
   1.474575e+05  -4.521607e+05
   1.397378e+05  -4.460038e+05
   1.373178e+05  -4.412659e+05
   1.282875e+05  -4.351612e+05
   1.269105e+05  -4.309662e+05
   1.199355e+05  -4.252612e+05
   1.179882e+05  -4.205786e+05
   1.100093e+05  -4.149223e+05
   1.082357e+05  -4.105495e+05
   1.006161e+05  -4.056049e+05
   9.881737e+04  -4.015079e+05
   9.216482e+04  -3.963992e+05
   9.158650e+04  -3.926540e+05
   8.461323e+04  -3.873065e+05
   8.326835e+04  -3.833652e+05
   7.657572e+04  -3.779605e+05
   7.547448e+04  -3.732773e+05
   6.947614e+04  -3.673581e+05
   6.770258e+04  -3.632018e+05
   6.076893e+04  -3.578826e+05
   6.023564e+04  -3.543454e+05
   5.447836e+04  -3.493980e+05
   5.417497e+04  -3.455904e+05
   4.851341e+04  -3.402635e+05
   4.810643e+04  -3.372079e+05
   4.250310e+04  -3.324622e+05
   4.162013e+04  -3.289114e+05
   3.623777e+04  -3.241905e+05
   3.574327e+04  -3.203551e+05
   3.078015e+04  -3.156849e+05
   3.092079e+04  -3.120776e+05
   2.626774e+04  -3.073553e+05
   2.538748e+04  -3.033971e+05
   2.006974e+04  -2.988610e+05
   2.023367e+04  -2.955609e+05
   1.587175e+04  -2.910180e+05
   1.563380e+04  -2.879148e+05
   1.130671e+04  -2.831719e+05
   1.100692e+04  -2.794723e+05
   6.539308e+03  -2.750896e+05
   6.958829e+03  -2.717945e+05
   2.674515e+03  -2.673745e+05
   3.126359e+03  -2.638795e+05
  -1.695641e+03  -2.594443e+05
  -1.105384e+03  -2.560979e+05
  -5.503188e+03  -2.517519e+05
  -4.452974e+03  -2.486141e+05
  -8.408032e+03  -2.441819e+05
  -7.659100e+03  -2.408450e+05
  -1.177837e+04  -2.365048e+05
  -1.108049e+04  -2.334346e+05
  -1.507219e+04  -2.296040e+05
  -1.383953e+04  -2.268383e+05
  -1.737507e+04  -2.228297e+05
  -1.665168e+04  -2.197862e+05
  -2.004665e+04  -2.159350e+05
  -1.898620e+04  -2.124923e+05
  -2.251180e+04  -2.083223e+05
  -2.164898e+04  -2.049541e+05
  -2.522997e+04  -2.008742e+05
  -2.399288e+04  -1.979793e+05
  -2.686526e+04  -1.943646e+05
  -2.573036e+04  -1.915615e+05
  -2.876109e+04  -1.876181e+05
  -2.730983e+04  -1.850849e+05
  -3.037826e+04  -1.816622e+05
  -2.923434e+04  -1.792047e+05
  -3.195174e+04  -1.755774e+05
  -3.084087e+04  -1.730027e+05
  -3.360402e+04  -1.693591e+05
  -3.218338e+04  -1.672410e+05
  -3.491939e+04  -1.636220e+05
  -3.310054e+04  -1.611044e+05
  -3.561606e+04  -1.576509e+05
  -3.437869e+04  -1.555031e+05
  -3.700901e+04  -1.517914e+05
  -3.573196e+04  -1.499638e+05
  -3.780040e+04  -1.467549e+05
  -3.640177e+04  -1.444440e+05
  -3.875548e+04  -1.411696e+05
  -3.689827e+04  -1.391545e+05
  -3.917315e+04  -1.360206e+05
  -3.775028e+04  -1.335739e+05
  -4.018020e+04  -1.300142e+05
  -3.845442e+04  -1.277575e+05
  -4.051281e+04  -1.247974e+05
  -3.886223e+04  -1.234355e+05
  -4.071144e+04  -1.202214e+05
  -3.883826e+04  -1.181541e+05
  -4.092306e+04  -1.151093e+05
  -3.938810e+04  -1.132541e+05
  -4.130191e+04  -1.104745e+05
  -3.921022e+04  -1.084829e+05
  -4.114695e+04  -1.059079e+05
  -3.963178e+04  -1.039594e+05
  -4.137365e+04  -1.013882e+05
  -3.953715e+04  -9.930196e+04
  -4.106974e+04  -9.689117e+04
  -3.913918e+04  -9.516442e+04
  -4.121974e+04  -9.236815e+04
  -3.926828e+04  -9.093873e+04
  -4.109720e+04  -8.852731e+04
  -3.895576e+04  -8.746145e+04
  -4.040648e+04  -8.459716e+04
  -3.846843e+04  -8.324034e+04
  -4.009836e+04  -8.090448e+04
  -3.822573e+04  -7.948906e+04
  -4.006690e+04  -7.735255e+04
  -3.781991e+04  -7.588967e+04
  -3.953111e+04  -7.383826e+04
  -3.767775e+04  -7.252902e+04
  -3.903412e+04  -7.053914e+04
  -3.711318e+04  -6.906971e+04
  -3.848995e+04  -6.694214e+04
  -3.649063e+04  -6.581473e+04
  -3.777184e+04  -6.384289e+04
  -3.591797e+04  -6.252823e+04
  -3.724840e+04  -6.078079e+04
  -3.507524e+04  -5.973358e+04
  -3.639484e+04  -5.801543e+04
  -3.456952e+04  -5.689336e+04
  -3.580346e+04  -5.492386e+04
  -3.377457e+04  -5.397454e+04
  -3.505191e+04  -5.211717e+04
  -3.305679e+04  -5.076596e+04
  -3.445209e+04  -4.888341e+04
  -3.254380e+04  -4.769444e+04
  -3.342858e+04  -4.599065e+04
  -3.125932e+04  -4.500620e+04
  -3.214665e+04  -4.337291e+04
  -3.018529e+04  -4.215927e+04
  -3.125476e+04  -4.062443e+04
  -2.907435e+04  -3.978856e+04
  -3.008270e+04  -3.821717e+04
  -2.831451e+04  -3.748869e+04
  -2.922012e+04  -3.603731e+04
  -2.745639e+04  -3.517969e+04
  -2.823596e+04  -3.373764e+04
  -2.622583e+04  -3.290998e+04
  -2.736818e+04  -3.159344e+04
  -2.535840e+04  -3.053692e+04
  -2.657441e+04  -2.939237e+04
  -2.428403e+04  -2.829238e+04
  -2.513677e+04  -2.718948e+04
  -2.310824e+04  -2.657311e+04
  -2.430590e+04  -2.538317e+04
  -2.217282e+04  -2.446650e+04
  -2.310945e+04  -2.358412e+04
  -2.096578e+04  -2.278332e+04
  -2.196914e+04  -2.170071e+04
  -1.993528e+04  -2.097129e+04
  -2.119839e+04  -2.023792e+04
  -1.904454e+04  -1.954538e+04
  -2.009756e+04  -1.861113e+04
  -1.808818e+04  -1.806108e+04
  -1.900890e+04  -1.719418e+04
  -1.695280e+04  -1.656854e+04
  -1.803290e+04  -1.554766e+04
  -1.591948e+04  -1.500526e+04
  -1.666591e+04  -1.423298e+04
  -1.469730e+04  -1.378000e+04
  -1.594120e+04  -1.269455e+04
  -1.382991e+04  -1.238537e+04
  -1.484178e+04  -1.149998e+04
  -1.268968e+04  -1.111468e+04
  -1.343005e+04  -1.043496e+04
  -1.152065e+04  -9.758455e+03
