 $SEQPAR
 ECHOT = 4.5
 HZPPPM = 297.204194
 SEQ = STEAM
 $END
 $NMID
 FMTDAT = '(2E15.6)'
 VOLUME = 17.5
 $END
   1.377416e+04  -1.211975e+03
   1.153540e+04   8.281930e+03
  -2.651226e+03   7.080417e+03
  -6.633844e+02  -1.086647e+03
   2.332580e+03  -1.158801e+03
   1.947371e+03   1.423489e+03
  -1.217988e+03   1.480966e+03
  -1.272871e+03   2.378729e+02
  -2.597668e+03  -1.181740e+03
  -1.396534e+03  -3.460401e+03
   1.065991e+03  -3.196966e+03
   2.055344e+03  -5.575349e+02
  -1.020215e+03   6.160576e+01
  -2.313412e+03  -2.415525e+03
  -8.115408e+02  -3.987025e+03
   1.603682e+03  -3.381486e+03
   2.104014e+03  -2.097403e+03
   1.771966e+03  -9.733695e+02
   1.476788e+02  -2.991316e+02
  -2.584915e+02  -1.104055e+03
   7.009348e+02  -1.786126e+03
   1.383181e+03  -4.916128e+02
  -1.032503e+03   5.610842e+02
  -2.483352e+03  -1.369981e+03
  -6.539711e+02  -3.679812e+03
   1.984817e+03  -2.802428e+03
   1.358878e+03  -4.435520e+02
  -3.032984e+02  -4.162240e-01
  -8.243429e+02  -8.647281e+02
  -4.792817e+02  -1.526477e+03
  -6.128005e+02  -1.859685e+03
   5.083134e+01  -1.819565e+03
   9.994143e+01  -9.351027e+02
  -8.024306e+02  -9.137110e+02
  -1.413835e+03  -2.430602e+03
   1.537110e+02  -3.105412e+03
   1.339486e+03  -1.568736e+03
   4.185241e+02  -4.487144e+02
  -1.014181e+03  -1.424405e+03
  -4.695790e+02  -2.716929e+03
   9.575177e+02  -2.458760e+03
   1.899598e+03  -1.172036e+03
   1.176081e+03   1.705064e+02
  -4.914197e+02   6.982269e+02
  -1.984187e+03  -3.063335e+02
  -1.493663e+03  -2.022921e+03
  -1.791927e+02  -2.371261e+03
   1.579952e+02  -1.394865e+03
  -5.282323e+02  -1.121359e+03
  -1.402639e+02  -1.799471e+03
   7.138966e+02  -1.597285e+03
   6.256678e+02  -5.238641e+02
  -6.078860e+02   6.406509e+01
  -1.198841e+03  -3.020271e+02
  -1.385448e+03  -1.043608e+03
  -1.156288e+03  -1.915150e+03
  -4.886678e+02  -2.322099e+03
   6.374482e+02  -1.633950e+03
   5.666250e+02  -4.206025e+02
  -2.648782e+02  -1.769847e+02
  -7.986653e+02  -7.220792e+02
  -3.774554e+02  -7.570542e+02
  -4.804399e+02  -2.860491e+02
  -1.071073e+03  -3.666958e+02
  -1.551521e+03  -1.031273e+03
  -9.895581e+02  -1.510417e+03
  -2.346188e+02  -1.291159e+03
   5.222565e+01  -7.412336e+02
  -5.780153e+02  -2.021063e+02
  -1.268789e+03  -2.854511e+02
  -1.422412e+03  -8.296975e+02
  -9.868391e+02  -1.274865e+03
  -8.826639e+02  -1.323618e+03
  -9.289561e+02  -1.342361e+03
  -7.002427e+02  -1.682701e+03
   2.231653e+02  -1.738996e+03
   8.116256e+02  -9.988437e+02
   5.725854e+02   1.508575e+02
  -4.871061e+02   8.189837e+02
  -1.354197e+03   3.629506e+02
  -1.587944e+03  -7.358041e+02
  -8.267819e+02  -1.314043e+03
  -9.526892e+01  -6.688462e+02
  -2.990344e+02   2.028082e+02
  -1.235368e+03   1.404473e+02
  -1.506197e+03  -6.692264e+02
  -1.028763e+03  -9.676242e+02
  -6.014416e+02  -6.070746e+02
  -8.981962e+02  -3.688013e+02
  -1.262719e+03  -7.367537e+02
  -1.118378e+03  -1.227871e+03
  -4.194891e+02  -1.352444e+03
   1.182026e+02  -9.729941e+02
   1.775261e+02  -3.631030e+02
  -3.518324e+02   1.585015e+01
  -7.076168e+02  -1.201880e+02
  -6.217009e+02  -3.980012e+02
  -2.934249e+02  -3.154720e+02
  -5.035298e+02   9.253193e+01
  -9.065399e+02   8.894991e+01
  -1.048151e+03  -2.655926e+02
  -7.072851e+02  -4.730586e+02
  -6.196879e+02  -2.024319e+02
  -8.854672e+02   1.013424e+02
  -1.365674e+03  -1.116861e+02
  -1.334855e+03  -7.781510e+02
  -8.338464e+02  -1.168599e+03
  -1.754601e+02  -9.350198e+02
   2.492837e+01  -3.028677e+02
  -3.178259e+02   4.673796e+01
  -6.764882e+02  -1.642595e+02
  -5.395674e+02  -4.161638e+02
  -3.394132e+02  -1.936889e+02
  -4.280689e+02   1.694683e+02
  -9.242203e+02   7.338462e+01
  -1.037424e+03  -4.625921e+02
  -6.003138e+02  -7.031238e+02
  -4.265984e+01  -3.956175e+02
  -1.248531e+02   1.597335e+02
  -7.326636e+02   3.025186e+02
  -1.145957e+03  -7.957461e+01
  -8.496713e+02  -6.387918e+02
  -2.159660e+02  -6.732297e+02
   5.951460e+01  -1.847567e+02
  -3.252619e+02   2.934046e+02
  -7.446273e+02   2.235276e+02
  -8.369193e+02  -1.117499e+02
  -5.699630e+02  -2.453201e+02
  -5.360292e+02  -5.851817e+01
  -7.809341e+02   5.253347e+01
  -1.003245e+03  -2.714477e+02
  -7.818232e+02  -8.077847e+02
  -2.505155e+02  -8.347341e+02
   1.953196e+02  -3.624966e+02
   1.095742e+01   2.468961e+02
  -4.173437e+02   3.617540e+02
  -7.238725e+02   1.181073e+02
  -6.881565e+02  -4.949102e+01
  -6.436504e+02  -5.460425e+01
  -6.879525e+02  -1.172429e+02
  -7.049374e+02  -2.985617e+02
  -4.850884e+02  -3.890161e+02
  -2.928924e+02  -1.664218e+02
  -2.633873e+02   1.146884e+02
  -5.785684e+02   2.810130e+02
  -9.341116e+02   1.149799e+02
  -9.487965e+02  -2.668273e+02
  -5.327948e+02  -5.282300e+02
  -1.855265e+02  -3.350390e+02
  -1.818429e+02   1.029237e+00
  -4.176339e+02   1.266291e+02
  -4.814388e+02   5.885959e+00
  -3.438363e+02   1.194302e+01
  -3.165074e+02   2.241380e+02
  -6.626248e+02   4.156574e+02
  -9.088166e+02   1.964627e+02
  -8.993331e+02  -2.847750e+02
  -4.672586e+02  -5.305848e+02
  -5.754580e+01  -2.274799e+02
  -3.371407e+01   2.218938e+02
  -4.280966e+02   4.220355e+02
  -7.291611e+02   1.924662e+02
  -7.130774e+02  -8.907008e+01
  -4.934501e+02  -1.518364e+02
  -4.266875e+02  -4.317536e+01
  -4.497162e+02  -5.486423e+01
  -4.058029e+02  -2.045228e+02
  -1.965027e+02  -2.451317e+02
   2.651877e+01  -1.022842e+00
  -1.720669e+01   3.837920e+02
  -4.027709e+02   5.198928e+02
  -6.868905e+02   3.190600e+02
  -6.261384e+02   3.744988e+01
  -2.933348e+02  -5.206717e+01
  -1.997591e+02   1.619092e+02
  -3.546966e+02   3.088649e+02
  -6.061273e+02   2.789751e+02
  -5.520847e+02   7.392844e+01
  -4.639794e+02  -1.479743e+01
  -4.389855e+02   5.922601e+01
  -5.085933e+02   9.705974e+01
  -5.018646e+02  -8.754558e+01
  -3.212692e+02  -1.815588e+02
  -9.249940e+01  -9.789173e+01
  -4.006176e+01   1.697896e+02
  -2.013929e+02   3.193818e+02
  -4.416471e+02   2.263387e+02
  -4.176004e+02   5.808298e+00
  -2.328902e+02   3.053748e+01
  -1.267785e+02   2.132745e+02
  -2.663246e+02   3.653604e+02
  -3.908033e+02   2.826340e+02
  -4.268243e+02   1.346883e+02
  -2.607894e+02   7.495901e+01
  -2.194649e+02   1.848026e+02
  -3.471207e+02   2.749595e+02
  -5.554034e+02   1.441750e+02
  -5.097015e+02  -8.861190e+01
  -2.661099e+02  -1.511952e+02
  -8.073833e+01   5.651907e+01
  -1.793729e+02   2.833573e+02
  -3.373698e+02   2.792068e+02
  -4.205204e+02   1.434559e+02
  -3.272891e+02   2.948596e+01
  -2.665229e+02   3.965649e+01
  -2.429176e+02   5.638415e+01
  -2.656160e+02   1.809675e+01
  -1.435000e+02  -8.080745e+01
  -1.016106e+01   2.505675e+00
   9.839289e+01   2.455202e+02
  -1.088463e+02   5.202181e+02
  -3.753109e+02   4.861377e+02
  -5.358803e+02   2.073813e+02
  -3.991147e+02  -2.327117e+01
  -1.906735e+02  -3.608277e+01
  -7.392230e+01   9.956025e+01
  -1.633587e+02   1.975269e+02
  -2.030472e+02   1.890014e+02
  -2.221608e+02   1.500000e+02
  -1.572915e+02   1.876262e+02
  -2.468433e+02   2.793640e+02
  -3.620110e+02   1.596916e+02
  -3.618102e+02   1.290337e+01
  -1.277702e+02  -5.818075e+01
   3.924591e+01   8.140803e+01
   4.313953e+01   2.352840e+02
  -1.276338e+02   3.571726e+02
  -2.446603e+02   2.513796e+02
  -2.553750e+02   1.318773e+02
  -1.694286e+02   7.051687e+01
  -1.331799e+02   1.661756e+02
  -1.671499e+02   1.510142e+02
  -2.410756e+02   8.946034e+01
  -1.072986e+02   2.153264e+01
   4.045794e-01   1.026253e+02
   7.547538e+01   2.545565e+02
  -1.595464e+02   3.449962e+02
  -2.722631e+02   2.256633e+02
  -2.834630e+02   8.563126e+01
  -1.636226e+02   7.140863e+00
  -9.580393e+01   4.367314e+01
  -1.036551e+02   1.179021e+02
  -1.469391e+02   1.005906e+02
  -1.039414e+02   8.970333e+01
  -6.589548e+01   1.456839e+02
  -4.863465e+01   2.095717e+02
  -1.676884e+02   2.550562e+02
  -2.052363e+02   1.632360e+02
  -1.634214e+02   2.190714e+01
  -2.492977e+01   1.991807e+01
   3.114613e+01   1.166478e+02
  -2.874681e+01   2.366703e+02
  -2.069595e+02   2.037564e+02
  -2.015151e+02   4.289582e+01
  -1.178501e+02   8.327170e+00
  -3.298812e+00   2.776744e+01
  -5.058397e+00   1.299805e+02
  -5.785645e+01   1.453525e+02
  -8.821889e+01   1.083974e+02
  -8.883283e+00   8.743588e+01
   2.117670e+01   1.386949e+02
  -5.842255e+01   2.113204e+02
  -1.499363e+02   1.874157e+02
  -1.605278e+02   9.575085e+01
  -1.138139e+02   3.641498e+01
  -4.961208e+01   8.454437e+01
  -7.517927e+01   2.330624e+02
  -1.155280e+02   1.942961e+02
  -1.832121e+02   1.621842e+02
  -1.238639e+02   1.043170e+02
  -7.669644e+01   1.284333e+02
  -5.036978e+01   1.510371e+02
  -1.144143e+02   1.238138e+02
  -9.667364e+01   5.870698e+01
  -3.660414e+01   2.732197e+01
   4.147107e+01   5.873983e+01
  -1.247888e+01   1.720452e+02
  -1.310770e+02   1.785448e+02
  -2.333137e+02   8.584336e+01
  -1.463391e+02   9.408733e+00
  -4.573254e+01   1.677162e+01
   9.660560e+00   9.234933e+01
  -4.053484e+01   1.613893e+02
  -5.307043e+01   1.654340e+02
  -5.647783e+01   1.729187e+02
  -3.514951e+01   2.054959e+02
  -8.866943e+01   2.128911e+02
  -1.600342e+02   1.940766e+02
  -2.203292e+02   8.117252e+01
  -1.077428e+02  -4.890621e+01
   5.244175e+00  -2.890637e+01
   5.666804e+01   7.906952e+01
   2.177539e+01   1.481739e+02
  -5.248097e+01   1.482197e+02
  -8.975409e+01   1.220733e+02
  -4.400420e+01   1.022891e+02
  -3.854633e+01   8.927914e+01
  -3.189193e+01   1.113192e+02
  -7.756931e+01   8.551306e+01
  -1.872735e+01   5.759624e+01
   4.435409e+00   6.652975e+01
   3.923896e+01   1.557497e+02
  -3.810956e+01   1.867284e+02
  -9.438904e+01   1.272389e+02
  -1.031367e+02   5.591459e+01
   6.450548e+00   4.146615e+01
   3.232208e+01   9.958968e+01
   3.550386e+01   1.508109e+02
  -5.317557e+01   1.343480e+02
  -2.485221e+01   9.461510e+01
  -1.634820e+01   7.158712e+01
  -4.056366e+00   1.052068e+02
  -3.545406e+01   1.606498e+02
  -1.163802e+02   9.747315e+01
  -1.193682e+02  -9.040373e+00
  -4.541882e+01  -1.065571e+01
   3.415003e+01  -6.309697e+00
   3.397956e+01   8.514810e+01
  -5.233755e+01   1.265501e+02
