 LCModel (Version 6.3-1N) Copyright: S.W. Provencher.          Ref.: Magn. Reson. Med. 30:672-679 (1993).                
  
 23 lines in following concentration table = NCONC+1
    Conc.  %SD   /Cr    Metabolite                                         
    0.909   1%   2.446 Mac                                                 
    0.484  10%   1.301 Ala                                                 
    1.679  10%   4.519 Asp                                                 
    0.163  41%   0.440 PCho                                                
    2.973   5%   8.000 Cr                                                  
    3.111   5%   8.371 PCr                                                 
    0.764   8%   2.056 GABA                                                
    1.483   4%   3.991 Gln                                                 
    5.881   2%  15.824 Glu                                                 
    1.009   4%   2.714 GSH                                                 
    0.253  27%   0.680 Gly                                                 
    5.554   2%  14.944 Ins                                                 
    0.371  11%   0.998 Lac                                                 
    7.772   1%  20.913 NAA                                                 
 6.06E-02  34%   0.163 Scyllo                                              
    1.105   6%   2.974 Tau                                                 
    0.000 999%   0.000 Asc                                                 
    0.000 999%   0.000 Glc                                                 
    1.188   5%   3.198 NAAG                                                
    0.554  12%   1.491 GPC                                                 
    1.528   5%   4.112 PE                                                  
    8.961   1%  24.111 NAA+NAAG                                            
   6 lines in following misc. output table
  FWHM = 0.039 ppm    S/N =  65                                            
  Data shift =-0.003 ppm                                                   
  Ph:  45 deg      16.1 deg/ppm                                            
  alphaB,S = 9.5E-02,   7.7E+01                                            
   19 spline knots.   Ns = 6(2)                                            
  ( 3) 2 infls.   ( 1) 1 extrs.                                            
 1218 points on ppm-axis = NY
      4.200000     4.196714     4.193428     4.190142     4.186856     4.183570     4.180285     4.176999     4.173713     4.170427
      4.167141     4.163855     4.160569     4.157283     4.153997     4.150712     4.147426     4.144140     4.140854     4.137568
      4.134282     4.130996     4.127710     4.124424     4.121139     4.117853     4.114567     4.111281     4.107995     4.104709
      4.101423     4.098137     4.094851     4.091566     4.088280     4.084994     4.081708     4.078422     4.075136     4.071850
      4.068564     4.065279     4.061993     4.058707     4.055421     4.052135     4.048849     4.045563     4.042277     4.038991
      4.035706     4.032420     4.029134     4.025848     4.022562     4.019276     4.015990     4.012704     4.009418     4.006133
      4.002847     3.999561     3.996275     3.992989     3.989703     3.986417     3.983131     3.979846     3.976560     3.973274
      3.969988     3.966702     3.963416     3.960130     3.956844     3.953558     3.950273     3.946987     3.943701     3.940415
      3.937129     3.933843     3.930557     3.927271     3.923985     3.920700     3.917414     3.914128     3.910842     3.907556
      3.904270     3.900984     3.897698     3.894413     3.891127     3.887841     3.884555     3.881269     3.877983     3.874697
      3.871411     3.868125     3.864840     3.861554     3.858268     3.854982     3.851696     3.848410     3.845124     3.841838
      3.838552     3.835267     3.831981     3.828695     3.825409     3.822123     3.818837     3.815551     3.812265     3.808980
      3.805694     3.802408     3.799122     3.795836     3.792550     3.789264     3.785978     3.782692     3.779407     3.776121
      3.772835     3.769549     3.766263     3.762977     3.759691     3.756405     3.753119     3.749834     3.746548     3.743262
      3.739976     3.736690     3.733404     3.730118     3.726832     3.723547     3.720261     3.716975     3.713689     3.710403
      3.707117     3.703831     3.700545     3.697259     3.693974     3.690688     3.687402     3.684116     3.680830     3.677544
      3.674258     3.670972     3.667686     3.664401     3.661115     3.657829     3.654543     3.651257     3.647971     3.644685
      3.641399     3.638113     3.634828     3.631542     3.628256     3.624970     3.621684     3.618398     3.615112     3.611826
      3.608541     3.605255     3.601969     3.598683     3.595397     3.592111     3.588825     3.585539     3.582253     3.578968
      3.575682     3.572396     3.569110     3.565824     3.562538     3.559252     3.555966     3.552680     3.549395     3.546109
      3.542823     3.539537     3.536251     3.532965     3.529679     3.526393     3.523108     3.519822     3.516536     3.513250
      3.509964     3.506678     3.503392     3.500106     3.496820     3.493535     3.490249     3.486963     3.483677     3.480391
      3.477105     3.473819     3.470533     3.467247     3.463962     3.460676     3.457390     3.454104     3.450818     3.447532
      3.444246     3.440960     3.437675     3.434389     3.431103     3.427817     3.424531     3.421245     3.417959     3.414673
      3.411387     3.408102     3.404816     3.401530     3.398244     3.394958     3.391672     3.388386     3.385100     3.381814
      3.378529     3.375243     3.371957     3.368671     3.365385     3.362099     3.358813     3.355527     3.352242     3.348956
      3.345670     3.342384     3.339098     3.335812     3.332526     3.329240     3.325954     3.322669     3.319383     3.316097
      3.312811     3.309525     3.306239     3.302953     3.299667     3.296381     3.293096     3.289810     3.286524     3.283238
      3.279952     3.276666     3.273380     3.270094     3.266809     3.263523     3.260237     3.256951     3.253665     3.250379
      3.247093     3.243807     3.240521     3.237236     3.233950     3.230664     3.227378     3.224092     3.220806     3.217520
      3.214234     3.210948     3.207663     3.204377     3.201091     3.197805     3.194519     3.191233     3.187947     3.184661
      3.181376     3.178090     3.174804     3.171518     3.168232     3.164946     3.161660     3.158374     3.155088     3.151803
      3.148517     3.145231     3.141945     3.138659     3.135373     3.132087     3.128801     3.125515     3.122230     3.118944
      3.115658     3.112372     3.109086     3.105800     3.102514     3.099228     3.095942     3.092657     3.089371     3.086085
      3.082799     3.079513     3.076227     3.072941     3.069655     3.066370     3.063084     3.059798     3.056512     3.053226
      3.049940     3.046654     3.043368     3.040082     3.036797     3.033511     3.030225     3.026939     3.023653     3.020367
      3.017081     3.013795     3.010509     3.007224     3.003938     3.000652     2.997366     2.994080     2.990794     2.987508
      2.984222     2.980937     2.977651     2.974365     2.971079     2.967793     2.964507     2.961221     2.957935     2.954649
      2.951364     2.948078     2.944792     2.941506     2.938220     2.934934     2.931648     2.928362     2.925076     2.921791
      2.918505     2.915219     2.911933     2.908647     2.905361     2.902075     2.898789     2.895504     2.892218     2.888932
      2.885646     2.882360     2.879074     2.875788     2.872502     2.869216     2.865931     2.862645     2.859359     2.856073
      2.852787     2.849501     2.846215     2.842929     2.839643     2.836358     2.833072     2.829786     2.826500     2.823214
      2.819928     2.816642     2.813356     2.810071     2.806785     2.803499     2.800213     2.796927     2.793641     2.790355
      2.787069     2.783783     2.780498     2.777212     2.773926     2.770640     2.767354     2.764068     2.760782     2.757496
      2.754210     2.750925     2.747639     2.744353     2.741067     2.737781     2.734495     2.731209     2.727923     2.724638
      2.721352     2.718066     2.714780     2.711494     2.708208     2.704922     2.701636     2.698350     2.695065     2.691779
      2.688493     2.685207     2.681921     2.678635     2.675349     2.672063     2.668777     2.665492     2.662206     2.658920
      2.655634     2.652348     2.649062     2.645776     2.642490     2.639205     2.635919     2.632633     2.629347     2.626061
      2.622775     2.619489     2.616203     2.612917     2.609632     2.606346     2.603060     2.599774     2.596488     2.593202
      2.589916     2.586630     2.583344     2.580059     2.576773     2.573487     2.570201     2.566915     2.563629     2.560343
      2.557057     2.553771     2.550486     2.547200     2.543914     2.540628     2.537342     2.534056     2.530770     2.527484
      2.524199     2.520913     2.517627     2.514341     2.511055     2.507769     2.504483     2.501197     2.497911     2.494626
      2.491340     2.488054     2.484768     2.481482     2.478196     2.474910     2.471624     2.468338     2.465053     2.461767
      2.458481     2.455195     2.451909     2.448623     2.445337     2.442051     2.438766     2.435480     2.432194     2.428908
      2.425622     2.422336     2.419050     2.415764     2.412478     2.409193     2.405907     2.402621     2.399335     2.396049
      2.392763     2.389477     2.386191     2.382905     2.379620     2.376334     2.373048     2.369762     2.366476     2.363190
      2.359904     2.356618     2.353333     2.350047     2.346761     2.343475     2.340189     2.336903     2.333617     2.330331
      2.327045     2.323760     2.320474     2.317188     2.313902     2.310616     2.307330     2.304044     2.300758     2.297472
      2.294187     2.290901     2.287615     2.284329     2.281043     2.277757     2.274471     2.271185     2.267900     2.264614
      2.261328     2.258042     2.254756     2.251470     2.248184     2.244898     2.241612     2.238327     2.235041     2.231755
      2.228469     2.225183     2.221897     2.218611     2.215325     2.212039     2.208754     2.205468     2.202182     2.198896
      2.195610     2.192324     2.189038     2.185752     2.182467     2.179181     2.175895     2.172609     2.169323     2.166037
      2.162751     2.159465     2.156179     2.152894     2.149608     2.146322     2.143036     2.139750     2.136464     2.133178
      2.129892     2.126606     2.123321     2.120035     2.116749     2.113463     2.110177     2.106891     2.103605     2.100319
      2.097034     2.093748     2.090462     2.087176     2.083890     2.080604     2.077318     2.074032     2.070746     2.067461
      2.064175     2.060889     2.057603     2.054317     2.051031     2.047745     2.044459     2.041173     2.037888     2.034602
      2.031316     2.028030     2.024744     2.021458     2.018172     2.014886     2.011600     2.008315     2.005029     2.001743
      1.998457     1.995171     1.991885     1.988599     1.985313     1.982028     1.978742     1.975456     1.972170     1.968884
      1.965598     1.962312     1.959026     1.955740     1.952455     1.949169     1.945883     1.942597     1.939311     1.936025
      1.932739     1.929453     1.926167     1.922882     1.919596     1.916310     1.913024     1.909738     1.906452     1.903166
      1.899880     1.896595     1.893309     1.890023     1.886737     1.883451     1.880165     1.876879     1.873593     1.870307
      1.867022     1.863736     1.860450     1.857164     1.853878     1.850592     1.847306     1.844020     1.840734     1.837449
      1.834163     1.830877     1.827591     1.824305     1.821019     1.817733     1.814447     1.811162     1.807876     1.804590
      1.801304     1.798018     1.794732     1.791446     1.788160     1.784874     1.781589     1.778303     1.775017     1.771731
      1.768445     1.765159     1.761873     1.758587     1.755301     1.752016     1.748730     1.745444     1.742158     1.738872
      1.735586     1.732300     1.729014     1.725729     1.722443     1.719157     1.715871     1.712585     1.709299     1.706013
      1.702727     1.699441     1.696156     1.692870     1.689584     1.686298     1.683012     1.679726     1.676440     1.673154
      1.669868     1.666583     1.663297     1.660011     1.656725     1.653439     1.650153     1.646867     1.643581     1.640296
      1.637010     1.633724     1.630438     1.627152     1.623866     1.620580     1.617294     1.614008     1.610723     1.607437
      1.604151     1.600865     1.597579     1.594293     1.591007     1.587721     1.584435     1.581150     1.577864     1.574578
      1.571292     1.568006     1.564720     1.561434     1.558148     1.554862     1.551577     1.548291     1.545005     1.541719
      1.538433     1.535147     1.531861     1.528575     1.525290     1.522004     1.518718     1.515432     1.512146     1.508860
      1.505574     1.502288     1.499002     1.495717     1.492431     1.489145     1.485859     1.482573     1.479287     1.476001
      1.472715     1.469429     1.466144     1.462858     1.459572     1.456286     1.453000     1.449714     1.446428     1.443142
      1.439857     1.436571     1.433285     1.429999     1.426713     1.423427     1.420141     1.416855     1.413569     1.410284
      1.406998     1.403712     1.400426     1.397140     1.393854     1.390568     1.387282     1.383996     1.380711     1.377425
      1.374139     1.370853     1.367567     1.364281     1.360995     1.357709     1.354424     1.351138     1.347852     1.344566
      1.341280     1.337994     1.334708     1.331422     1.328136     1.324851     1.321565     1.318279     1.314993     1.311707
      1.308421     1.305135     1.301849     1.298563     1.295278     1.291992     1.288706     1.285420     1.282134     1.278848
      1.275562     1.272276     1.268991     1.265705     1.262419     1.259133     1.255847     1.252561     1.249275     1.245989
      1.242703     1.239418     1.236132     1.232846     1.229560     1.226274     1.222988     1.219702     1.216416     1.213130
      1.209845     1.206559     1.203273     1.199987     1.196701     1.193415     1.190129     1.186843     1.183558     1.180272
      1.176986     1.173700     1.170414     1.167128     1.163842     1.160556     1.157270     1.153985     1.150699     1.147413
      1.144127     1.140841     1.137555     1.134269     1.130983     1.127697     1.124412     1.121126     1.117840     1.114554
      1.111268     1.107982     1.104696     1.101410     1.098125     1.094839     1.091553     1.088267     1.084981     1.081695
      1.078409     1.075123     1.071837     1.068552     1.065266     1.061980     1.058694     1.055408     1.052122     1.048836
      1.045550     1.042264     1.038979     1.035693     1.032407     1.029121     1.025835     1.022549     1.019263     1.015977
      1.012691     1.009406     1.006120     1.002834     0.999548     0.996262     0.992976     0.989691     0.986405     0.983119
      0.979833     0.976547     0.973261     0.969976     0.966690     0.963404     0.960118     0.956832     0.953546     0.950261
      0.946975     0.943689     0.940403     0.937117     0.933832     0.930546     0.927260     0.923974     0.920688     0.917402
      0.914117     0.910831     0.907545     0.904259     0.900973     0.897687     0.894402     0.891116     0.887830     0.884544
      0.881258     0.877972     0.874687     0.871401     0.868115     0.864829     0.861543     0.858258     0.854972     0.851686
      0.848400     0.845114     0.841828     0.838543     0.835257     0.831971     0.828685     0.825399     0.822113     0.818828
      0.815542     0.812256     0.808970     0.805684     0.802399     0.799113     0.795827     0.792541     0.789255     0.785969
      0.782684     0.779398     0.776112     0.772826     0.769540     0.766254     0.762969     0.759683     0.756397     0.753111
      0.749825     0.746539     0.743254     0.739968     0.736682     0.733396     0.730110     0.726825     0.723539     0.720253
      0.716967     0.713681     0.710395     0.707110     0.703824     0.700538     0.697252     0.693966     0.690680     0.687395
      0.684109     0.680823     0.677537     0.674251     0.670965     0.667680     0.664394     0.661108     0.657822     0.654536
      0.651251     0.647965     0.644679     0.641393     0.638107     0.634821     0.631536     0.628250     0.624964     0.621678
      0.618392     0.615106     0.611821     0.608535     0.605249     0.601963     0.598677     0.595392     0.592106     0.588820
      0.585534     0.582248     0.578962     0.575677     0.572391     0.569105     0.565819     0.562533     0.559247     0.555962
      0.552676     0.549390     0.546104     0.542818     0.539532     0.536247     0.532961     0.529675     0.526389     0.523103
      0.519818     0.516532     0.513246     0.509960     0.506674     0.503388     0.500103     0.496817     0.493531     0.490245
      0.486959     0.483673     0.480388     0.477102     0.473816     0.470530     0.467244     0.463959     0.460673     0.457387
      0.454101     0.450815     0.447529     0.444244     0.440958     0.437672     0.434386     0.431100     0.427814     0.424529
      0.421243     0.417957     0.414671     0.411385     0.408099     0.404814     0.401528     0.398242     0.394956     0.391670
      0.388385     0.385099     0.381813     0.378527     0.375241     0.371955     0.368670     0.365384     0.362098     0.358812
      0.355526     0.352240     0.348955     0.345669     0.342383     0.339097     0.335811     0.332525     0.329240     0.325954
      0.322668     0.319382     0.316096     0.312811     0.309525     0.306239     0.302953     0.299667     0.296381     0.293096
      0.289810     0.286524     0.283238     0.279952     0.276666     0.273381     0.270095     0.266809     0.263523     0.260237
      0.256952     0.253666     0.250380     0.247094     0.243808     0.240522     0.237237     0.233951     0.230665     0.227379
      0.224093     0.220807     0.217522     0.214236     0.210950     0.207664     0.204378     0.201092
 NY phased data points follow
  -2.99357E+02 -2.91165E+02 -4.31890E+02 -2.49086E+02 -5.09561E+02 -5.08460E+02 -5.50736E+02 -3.71304E+02 -8.46612E+02 -4.03447E+02
  -2.13681E+02  3.14432E+01  6.38290E+01  5.35735E+02  3.06141E+02  2.50397E+02  3.33906E+02  3.53330E+02  1.43133E+02  2.37822E+02
   9.70254E+02  7.92931E+02  8.06600E+02  1.12266E+03  1.44040E+03  1.35646E+03  1.52475E+03  1.66752E+03  1.56697E+03  1.45881E+03
   1.91469E+03  1.69998E+03  1.62862E+03  2.21773E+03  2.68968E+03  3.15217E+03  3.91484E+03  4.21348E+03  5.16006E+03  5.23078E+03
   5.59050E+03  5.72814E+03  6.19242E+03  5.98347E+03  6.01737E+03  5.21186E+03  4.97176E+03  4.40419E+03  4.00530E+03  3.39613E+03
   3.38811E+03  2.63185E+03  2.39296E+03  2.28722E+03  2.51837E+03  2.55415E+03  2.73067E+03  3.10964E+03  3.56189E+03  3.80652E+03
   3.84582E+03  3.93798E+03  4.60421E+03  4.60995E+03  4.70076E+03  5.43885E+03  5.73691E+03  5.71200E+03  6.07029E+03  6.39981E+03
   7.18104E+03  7.61574E+03  8.03777E+03  9.01289E+03  9.22702E+03  1.04609E+04  1.11266E+04  1.22749E+04  1.31951E+04  1.46776E+04
   1.58371E+04  1.73802E+04  1.83143E+04  1.91438E+04  1.96179E+04  1.98090E+04  1.97740E+04  1.92763E+04  1.84648E+04  1.78929E+04
   1.69182E+04  1.59354E+04  1.43813E+04  1.34624E+04  1.23723E+04  1.14442E+04  1.02058E+04  9.49043E+03  9.28628E+03  9.13011E+03
   8.55681E+03  8.48255E+03  8.18078E+03  8.07019E+03  7.99109E+03  7.64454E+03  7.47115E+03  6.84568E+03  6.83898E+03  6.92387E+03
   7.09497E+03  7.23313E+03  6.63781E+03  7.21692E+03  7.11338E+03  7.04460E+03  7.16366E+03  7.25474E+03  7.27405E+03  7.70342E+03
   7.76896E+03  8.49220E+03  9.18045E+03  1.00353E+04  1.05671E+04  1.13051E+04  1.18192E+04  1.26864E+04  1.31227E+04  1.38470E+04
   1.42378E+04  1.47949E+04  1.51426E+04  1.54189E+04  1.56674E+04  1.55491E+04  1.55410E+04  1.49598E+04  1.42924E+04  1.39115E+04
   1.28901E+04  1.22904E+04  1.16063E+04  1.10887E+04  1.08275E+04  9.86950E+03  9.38038E+03  8.91188E+03  8.06318E+03  7.96921E+03
   7.59612E+03  7.24820E+03  7.18943E+03  7.05351E+03  6.95645E+03  6.94733E+03  7.51698E+03  8.30857E+03  8.68011E+03  9.18799E+03
   9.59466E+03  1.00515E+04  1.03085E+04  1.05784E+04  1.08449E+04  1.17148E+04  1.20842E+04  1.24930E+04  1.30693E+04  1.35342E+04
   1.37962E+04  1.42183E+04  1.45114E+04  1.48048E+04  1.47103E+04  1.47417E+04  1.46512E+04  1.46702E+04  1.45748E+04  1.42013E+04
   1.38751E+04  1.36446E+04  1.32743E+04  1.23961E+04  1.25343E+04  1.24269E+04  1.19095E+04  1.16885E+04  1.08655E+04  1.10834E+04
   1.09369E+04  1.07931E+04  1.13466E+04  1.16185E+04  1.19234E+04  1.28813E+04  1.37943E+04  1.43381E+04  1.47735E+04  1.50955E+04
   1.54712E+04  1.52534E+04  1.51776E+04  1.42476E+04  1.34605E+04  1.25629E+04  1.18521E+04  1.11035E+04  1.02443E+04  9.89261E+03
   9.44541E+03  9.36992E+03  8.66631E+03  8.49133E+03  7.91848E+03  7.14596E+03  6.44357E+03  6.08954E+03  4.64113E+03  4.78098E+03
   4.36643E+03  4.62154E+03  4.15750E+03  3.86419E+03  4.34569E+03  4.08328E+03  4.07411E+03  4.26862E+03  4.10134E+03  4.20643E+03
   3.75485E+03  3.81721E+03  4.01638E+03  3.79129E+03  3.87821E+03  4.06056E+03  4.23364E+03  4.19379E+03  3.86682E+03  3.79418E+03
   3.65190E+03  3.50970E+03  3.50974E+03  3.00914E+03  2.72283E+03  2.68424E+03  2.92915E+03  2.54053E+03  2.30786E+03  2.85197E+03
   2.68298E+03  2.55742E+03  2.25303E+03  2.62450E+03  2.58940E+03  2.87926E+03  2.85766E+03  2.82009E+03  3.16327E+03  3.54362E+03
   3.52784E+03  3.88946E+03  3.54935E+03  3.82403E+03  4.07762E+03  4.32017E+03  4.72660E+03  4.62213E+03  4.92309E+03  5.08812E+03
   6.01481E+03  5.89354E+03  7.08842E+03  7.25493E+03  7.91629E+03  8.36749E+03  8.58010E+03  8.71800E+03  8.99680E+03  9.36219E+03
   9.63769E+03  9.98424E+03  1.08733E+04  1.12417E+04  1.16450E+04  1.18969E+04  1.19450E+04  1.17705E+04  1.17350E+04  1.12086E+04
   1.14479E+04  1.16442E+04  1.25212E+04  1.30738E+04  1.40747E+04  1.49532E+04  1.57338E+04  1.68053E+04  1.67538E+04  1.67400E+04
   1.70820E+04  1.67353E+04  1.60780E+04  1.54890E+04  1.46241E+04  1.32982E+04  1.21872E+04  1.05348E+04  9.20157E+03  7.96528E+03
   6.62835E+03  5.82476E+03  5.29129E+03  5.06068E+03  5.03622E+03  4.73779E+03  4.90761E+03  4.75791E+03  4.25220E+03  4.62219E+03
   3.90437E+03  3.93229E+03  3.53553E+03  3.89460E+03  3.57936E+03  3.63492E+03  3.93734E+03  4.19731E+03  4.56896E+03  4.55814E+03
   4.68866E+03  4.42892E+03  4.39095E+03  4.73391E+03  4.46682E+03  4.43944E+03  4.76228E+03  5.56679E+03  5.64510E+03  6.52174E+03
   6.78075E+03  7.49275E+03  7.50567E+03  8.19061E+03  9.00924E+03  9.41707E+03  9.98808E+03  1.16258E+04  1.32305E+04  1.60670E+04
   1.83142E+04  2.07822E+04  2.34209E+04  2.59756E+04  2.77455E+04  2.95108E+04  3.05574E+04  3.07327E+04  3.04917E+04  2.92850E+04
   2.72782E+04  2.52032E+04  2.23738E+04  1.97558E+04  1.72325E+04  1.49872E+04  1.29302E+04  1.20202E+04  1.09955E+04  1.06203E+04
   1.04649E+04  1.08182E+04  1.02298E+04  1.01020E+04  9.00280E+03  8.97575E+03  8.37718E+03  8.04799E+03  7.65991E+03  7.95329E+03
   7.80367E+03  7.77897E+03  7.58616E+03  7.31319E+03  6.82341E+03  6.56764E+03  6.11782E+03  5.79867E+03  5.02990E+03  5.10984E+03
   4.45806E+03  4.31800E+03  4.22858E+03  4.45021E+03  4.60330E+03  4.02851E+03  3.79674E+03  3.54455E+03  3.61519E+03  3.44274E+03
   3.06603E+03  3.09202E+03  2.88191E+03  3.00143E+03  2.78649E+03  2.95665E+03  2.83400E+03  2.69011E+03  3.01961E+03  2.96638E+03
   2.51856E+03  2.57215E+03  2.18936E+03  2.65184E+03  2.43886E+03  2.79506E+03  2.27273E+03  2.62485E+03  2.44738E+03  2.40204E+03
   2.25207E+03  2.66988E+03  1.87676E+03  1.99038E+03  2.09140E+03  2.16687E+03  2.47021E+03  2.81763E+03  3.20042E+03  2.99989E+03
   3.23461E+03  3.67150E+03  3.36973E+03  3.27359E+03  3.33286E+03  3.49986E+03  3.43056E+03  3.39615E+03  3.13296E+03  3.50901E+03
   3.06266E+03  3.62223E+03  3.42366E+03  3.98999E+03  3.78449E+03  4.37952E+03  4.35039E+03  4.59035E+03  4.65511E+03  5.35336E+03
   5.83120E+03  6.36047E+03  6.75664E+03  7.46133E+03  7.79648E+03  8.11006E+03  7.90786E+03  8.17654E+03  7.62785E+03  7.24331E+03
   7.17756E+03  7.09347E+03  6.66791E+03  6.82924E+03  6.86134E+03  7.02256E+03  6.96031E+03  7.24101E+03  7.89309E+03  8.09214E+03
   7.76122E+03  7.71490E+03  7.82510E+03  7.37326E+03  6.94073E+03  6.75382E+03  5.95033E+03  5.49103E+03  4.96420E+03  4.50446E+03
   3.86768E+03  3.52938E+03  2.70150E+03  2.65660E+03  2.76872E+03  2.65690E+03  2.55207E+03  2.18575E+03  2.53234E+03  2.47297E+03
   2.71077E+03  2.71329E+03  3.33014E+03  3.25243E+03  3.75816E+03  3.84867E+03  4.02505E+03  4.34523E+03  4.45299E+03  4.97327E+03
   5.12628E+03  5.67589E+03  5.82260E+03  6.41113E+03  6.67791E+03  7.00431E+03  7.16588E+03  7.29626E+03  7.50752E+03  7.51714E+03
   7.85637E+03  7.69035E+03  7.79697E+03  7.74378E+03  7.39956E+03  7.62661E+03  7.77268E+03  7.41123E+03  7.74742E+03  7.67115E+03
   7.68732E+03  8.01000E+03  7.71719E+03  8.13047E+03  7.88656E+03  7.93055E+03  7.59612E+03  7.83408E+03  7.94878E+03  7.51864E+03
   7.28549E+03  7.40336E+03  7.60676E+03  7.61019E+03  7.71424E+03  7.95771E+03  7.80512E+03  7.63209E+03  7.59698E+03  7.01008E+03
   7.07831E+03  6.49859E+03  6.51298E+03  6.31905E+03  6.36506E+03  6.36026E+03  6.53973E+03  6.71536E+03  7.29372E+03  7.57741E+03
   7.73334E+03  8.42565E+03  8.85640E+03  9.19299E+03  1.00076E+04  1.04218E+04  1.13183E+04  1.21528E+04  1.27077E+04  1.33562E+04
   1.41304E+04  1.39800E+04  1.44225E+04  1.44920E+04  1.46672E+04  1.47237E+04  1.45301E+04  1.44602E+04  1.37086E+04  1.33835E+04
   1.26416E+04  1.24255E+04  1.14264E+04  1.11806E+04  1.08259E+04  9.91640E+03  9.54048E+03  9.00651E+03  8.78058E+03  8.62688E+03
   8.09672E+03  7.91373E+03  8.30340E+03  7.94060E+03  8.16648E+03  8.21272E+03  8.10357E+03  8.62930E+03  8.41422E+03  8.62124E+03
   8.27056E+03  8.70852E+03  8.71249E+03  8.84581E+03  8.57898E+03  8.66116E+03  8.69415E+03  8.42103E+03  8.34567E+03  8.81410E+03
   8.34951E+03  8.76383E+03  8.64935E+03  8.65408E+03  8.69888E+03  8.91259E+03  8.64271E+03  8.93237E+03  9.04137E+03  9.40893E+03
   9.88450E+03  9.98078E+03  1.01417E+04  1.05507E+04  1.10720E+04  1.13123E+04  1.15105E+04  1.20863E+04  1.19356E+04  1.21205E+04
   1.28102E+04  1.33157E+04  1.33404E+04  1.34904E+04  1.39489E+04  1.44163E+04  1.48551E+04  1.55468E+04  1.57139E+04  1.60208E+04
   1.63928E+04  1.63637E+04  1.68080E+04  1.69697E+04  1.71640E+04  1.75931E+04  1.81578E+04  1.87126E+04  1.89783E+04  1.90489E+04
   1.95153E+04  2.01100E+04  1.98743E+04  2.06525E+04  2.04774E+04  2.09421E+04  2.12444E+04  2.16650E+04  2.23202E+04  2.33577E+04
   2.40675E+04  2.54336E+04  2.58244E+04  2.64750E+04  2.71484E+04  2.77338E+04  2.81942E+04  2.97054E+04  3.10946E+04  3.32764E+04
   3.60724E+04  3.83357E+04  4.03698E+04  4.23105E+04  4.40622E+04  4.47050E+04  4.51113E+04  4.48863E+04  4.35198E+04  4.21230E+04
   3.91626E+04  3.54923E+04  3.11489E+04  2.70974E+04  2.29608E+04  1.99686E+04  1.70788E+04  1.56877E+04  1.41138E+04  1.37282E+04
   1.32741E+04  1.31519E+04  1.28460E+04  1.26692E+04  1.23005E+04  1.16712E+04  1.11042E+04  1.06995E+04  1.06061E+04  1.08208E+04
   1.10122E+04  1.07378E+04  1.15157E+04  1.15255E+04  1.16197E+04  1.14392E+04  1.12330E+04  1.08628E+04  1.05262E+04  1.03633E+04
   1.02471E+04  1.04309E+04  1.01763E+04  1.02602E+04  1.06443E+04  1.07940E+04  1.04664E+04  1.04422E+04  9.74126E+03  9.79362E+03
   9.23887E+03  8.83150E+03  8.60111E+03  8.59206E+03  8.60974E+03  8.32905E+03  8.46807E+03  8.37056E+03  7.94023E+03  7.77097E+03
   7.49282E+03  7.03220E+03  7.14037E+03  6.74633E+03  6.78573E+03  6.93747E+03  6.85826E+03  6.86673E+03  6.68910E+03  7.05221E+03
   6.82865E+03  7.08573E+03  6.67642E+03  6.48039E+03  6.04012E+03  6.15789E+03  6.30743E+03  6.58782E+03  6.32356E+03  6.48612E+03
   6.72328E+03  6.60093E+03  6.42467E+03  6.35553E+03  6.73329E+03  6.15701E+03  6.26086E+03  6.42410E+03  6.34512E+03  6.73772E+03
   6.41819E+03  6.88514E+03  6.89182E+03  6.92289E+03  7.11310E+03  7.34654E+03  7.06766E+03  7.34223E+03  7.12479E+03  7.34681E+03
   7.48681E+03  7.69557E+03  7.82912E+03  8.04360E+03  7.58522E+03  8.17923E+03  7.94625E+03  7.98631E+03  8.11044E+03  7.99749E+03
   7.60397E+03  7.98489E+03  7.91526E+03  8.16034E+03  7.56005E+03  7.69813E+03  7.75895E+03  7.70211E+03  7.55241E+03  7.63263E+03
   7.46148E+03  7.13208E+03  6.90152E+03  6.89037E+03  7.01810E+03  6.40064E+03  6.81708E+03  6.89466E+03  6.63810E+03  6.82457E+03
   6.75905E+03  6.50090E+03  6.20785E+03  6.55894E+03  6.02068E+03  6.18898E+03  6.16189E+03  6.20450E+03  6.36887E+03  6.28016E+03
   6.31693E+03  6.40988E+03  6.13763E+03  6.27872E+03  6.09815E+03  6.09054E+03  5.99284E+03  6.00235E+03  6.13528E+03  6.09229E+03
   6.36694E+03  6.54038E+03  6.58651E+03  6.67494E+03  6.70342E+03  6.85203E+03  6.84029E+03  6.93859E+03  6.76109E+03  6.79582E+03
   7.02567E+03  7.25792E+03  7.39377E+03  7.53795E+03  7.59331E+03  7.67154E+03  7.97192E+03  7.92575E+03  8.09314E+03  8.00600E+03
   7.99998E+03  8.26407E+03  8.26228E+03  8.56583E+03  8.55900E+03  8.88623E+03  9.03321E+03  8.96442E+03  9.18310E+03  9.62062E+03
   9.60593E+03  9.85292E+03  9.75901E+03  9.96428E+03  1.00074E+04  1.04838E+04  1.04636E+04  1.07615E+04  1.07808E+04  1.09957E+04
   1.07461E+04  1.12068E+04  1.10483E+04  1.12763E+04  1.11265E+04  1.10771E+04  1.08543E+04  1.10820E+04  1.07065E+04  1.05152E+04
